# peak_freq_hz,996.7085
# peak_db,-5.71
# harmonic2_freq_hz,2002.3278
# harmonic2_db,-49.66
# snr_db,51.03
# noise_floor_db,-58.01
# thd_percent,0.820

time_s,amplitude,freq_hz,magnitude,magnitude_db
0.0,0.40782958984374984,0.0,0.00563836243203917,-44.97694022374043
3.107713344521101e-05,0.4718295898437499,15.711914062500002,0.004065020636440991,-47.81874490445365
6.215426689042202e-05,0.49482958984375003,31.423828125000004,0.0009043096254439105,-60.873656920736245
9.323140033563304e-05,0.4998295898437499,47.13574218750001,0.0006443140833778738,-63.818047501872186
0.00012430853378084405,0.4978295898437497,62.84765625000001,0.0008850388241570522,-61.06075354239111
0.00015538566722605505,0.4838295898437499,78.55957031250001,0.0006599215517973641,-63.61015375013558
0.00018646280067126608,0.42482958984374974,94.27148437500001,0.00036536781262147896,-68.7453942727985
0.0002175399341164771,0.3718295898437498,109.98339843750001,0.00026014591765813447,-71.69565966429259
0.0002486170675616881,0.28482958984374984,125.69531250000001,0.0005864345656163048,-64.63560877387756
0.0002796942010068991,0.19582958984374987,141.40722656250003,0.0003799216162931213,-68.40611989336898
0.0003107713344521101,0.10882958984374991,157.11914062500003,0.0003583243950482622,-68.91447244909996
0.0003418484678973211,0.00982958984374993,172.83105468750003,0.0006123755225735678,-64.2596435243799
0.00037292560134253216,-0.09017041015625016,188.54296875000003,0.00042214905480547854,-67.4906835549823
0.00040400273478774317,-0.17717041015625012,204.25488281250003,0.0004778153451352648,-66.41479811998417
0.0004350798682329542,-0.2721704101562501,219.96679687500003,0.0009657739446556687,-60.30249030073874
0.0004661570016781652,-0.34817041015625017,235.67871093750003,0.004626445461372272,-46.69505106063773
0.0004972341351233762,-0.4131704101562501,251.39062500000003,0.005290421634935901,-45.53019428382095
0.0005283112685685872,-0.46317041015625016,267.10253906250006,0.0031406230618740596,-50.05968368869438
0.0005593884020137982,-0.4961704101562501,282.81445312500006,0.0004311195145690345,-67.30804634820599
0.0005904655354590093,-0.5061704101562501,298.52636718750006,0.0006509446619483965,-63.72911858801055
0.0006215426689042202,-0.4961704101562501,314.23828125000006,0.0005215461828127068,-65.65414456020719
0.0006526198023494313,-0.46717041015625016,329.95019531250006,0.00035275303906607007,-69.05058469515878
0.0006836969357946422,-0.4271704101562501,345.66210937500006,0.00013483969350141636,-77.40364480212239
0.0007147740692398533,-0.36517041015625007,361.37402343750006,0.0003316078142410018,-69.58750485338548
0.0007458512026850643,-0.28717041015625,377.08593750000006,0.00010649418212822572,-79.45348226784864
0.0007769283361302753,-0.22017041015625005,392.79785156250006,7.335817139120331e-05,-82.69102993997296
0.0008080054695754863,-0.10717041015625006,408.50976562500006,0.0005338580258276123,-65.45148446104858
0.0008390826030206973,-0.004170410156250082,424.22167968750006,0.0008661476531535939,-61.248161330137464
0.0008701597364659083,0.08482958984374989,439.93359375000006,0.0006717270926866379,-63.45614268710644
0.0009012368699111193,0.17582958984374986,455.64550781250006,0.0007094279975904695,-62.981833509461104
0.0009323140033563304,0.27582958984374994,471.35742187500006,0.0013770100513033957,-57.22125778681563
0.0009633911368015413,0.3448295898437499,487.06933593750006,0.006478818756362814,-43.7700833823504
0.0009944682702467524,0.40182958984375006,502.78125000000006,0.006255213333175863,-44.07515748191979
0.0010255454036919634,0.46282958984375,518.4931640625001,0.0022160415275159105,-53.088442104176245
0.0010566225371371745,0.4888295898437498,534.2050781250001,0.00046828384533920424,-66.58981646283993
0.0010876996705823853,0.50282958984375,549.9169921875001,0.0012123338497826088,-58.32755536598006
0.0011187768040275964,0.4978295898437497,565.6289062500001,0.0009892431303542774,-60.0939391300644
0.0011498539374728074,0.4738295898437501,581.3408203125001,0.0007734038683415774,-62.23187318962183
0.0011809310709180185,0.42482958984374974,597.0527343750001,0.00031509580719924765,-70.03114748638006
0.0012120082043632293,0.3668295898437499,612.7646484375001,0.00039768814882847845,-68.0091469955068
0.0012430853378084404,0.29182958984374996,628.4765625000001,0.00044196730253447906,-67.09219716594984
0.0012741624712536515,0.2098295898437499,644.1884765625001,7.249588246303775e-06,-102.79373198752423
0.0013052396046988625,0.12382958984374981,659.9003906250001,0.0008494887845249071,-61.41684700139131
0.0013363167381440736,0.025829589843749945,675.6123046875001,0.0017970141401843142,-54.90897010596576
0.0013673938715892844,-0.09317041015625005,691.3242187500001,0.001637050158258906,-55.71876027180239
0.0013984710050344955,-0.17817041015625001,707.0361328125001,0.0005874855758134243,-64.62005582324308
0.0014295481384797065,-0.2741704101562501,722.7480468750001,0.0034198763446977158,-49.319791933567394
0.0014606252719249176,-0.34317041015625005,738.4599609375001,0.012994361896264205,-37.72490084315346
0.0014917024053701287,-0.4171704101562501,754.1718750000001,0.011716867683574494,-38.62376948840997
0.0015227795388153395,-0.46017041015625004,769.8837890625001,0.0031846478138561765,-49.9387717722029
0.0015538566722605506,-0.5021704101562501,785.5957031250001,0.0005415073281231127,-65.32791321932595
0.0015849338057057616,-0.5081704101562501,801.3076171875001,0.0018108934860749115,-54.84214186435372
0.0016160109391509727,-0.5031704101562502,817.0195312500001,0.0017067098376067709,-55.35680615888184
0.0016470880725961835,-0.47717041015625017,832.7314453125001,0.0006163874622565164,-64.20292406013287
0.0016781652060413946,-0.43417041015625,848.4433593750001,0.0003457908757540046,-69.22372938420669
0.0017092423394866056,-0.36117041015625007,864.1552734375001,0.0014082900003720372,-57.026158082471184
0.0017403194729318167,-0.2901704101562501,879.8671875000001,0.0013271659445356506,-57.54149541272541
0.0017713966063770278,-0.20717041015625015,895.5791015625001,0.0007580214400962339,-62.40637019822741
0.0018024737398222386,-0.10917041015625006,911.2910156250001,0.002351391696031878,-52.57350039334095
0.0018335508732674497,-0.018170410156250094,927.0029296875001,0.006816067224430442,-43.32932269731096
0.0018646280067126607,0.08882958984374989,942.7148437500001,0.007336679179577001,-42.69000942810347
0.0018957051401578718,0.17682958984374997,958.4267578125001,0.013567060492215625,-37.35028477099758
0.0019267822736030826,0.26582958984374994,974.1386718750001,0.10591308342847496,-19.501007764751385
0.0019578594070482937,0.3348295898437499,989.8505859375001,0.44749331047850627,-6.984269050248616
0.0019889365404935047,0.40982958984375006,1005.5625000000001,0.4058211572428796,-7.833306300575527
0.002020013673938716,0.46282958984375,1021.2744140625001,0.06762153375061647,-23.398299660961474
0.002051090807383927,0.48582958984375013,1036.9863281250002,0.011063398880474808,-39.122228584132934
0.002082167940829138,0.5088295898437498,1052.6982421875002,0.008647999424809427,-41.261686957801224
0.002113245074274349,0.49882958984375003,1068.4101562500002,0.005798675569507155,-44.733423777372224
0.0021443222077195596,0.47482958984375,1084.1220703125002,0.0007050946722142344,-63.035051325588434
0.0021753993411647706,0.43682958984374975,1099.8339843750002,0.0008859529223060638,-61.0517870902858
0.0022064764746099817,0.36982958984375003,1115.5458984375002,0.0025608787881213242,-51.83221953927284
0.0022375536080551928,0.29382958984374996,1131.2578125000002,0.0021760049301293373,-53.246802496022795
0.002268630741500404,0.21482958984375,1146.9697265625002,0.0007168499586016727,-62.8914346979668
0.002299707874945615,0.12282958984374992,1162.6816406250002,0.000713522123025475,-62.931851125318346
0.002330785008390826,0.024829589843749833,1178.3935546875002,0.0023956215659306987,-52.411635715423024
0.002361862141836037,-0.07817041015625015,1194.1054687500002,0.0025170372958016906,-51.98220698283363
0.002392939275281248,-0.17317041015625012,1209.8173828125002,0.0010029802987960507,-59.974151943258455
0.0024240164087264587,-0.2641704101562501,1225.5292968750002,0.0030892860466290115,-50.20283754031432
0.0024550935421716697,-0.34717041015625005,1241.2412109375002,0.013625693528478288,-37.31282766967213
0.002486170675616881,-0.41417041015625,1256.9531250000002,0.01263536499516901,-37.96824416307669
0.002517247809062092,-0.45517041015625015,1272.6650390625002,0.0024661030418348154,-52.15977561888021
0.002548324942507303,-0.49017041015625007,1288.3769531250002,0.0008203762496368338,-61.719738413334895
0.002579402075952514,-0.5031704101562502,1304.0888671875002,0.0014494609996179824,-56.77586930668693
0.002610479209397725,-0.4961704101562501,1319.8007812500002,0.001274602256244285,-57.89250633491893
0.002641556342842936,-0.48217041015625006,1335.5126953125002,0.0004356677621066059,-67.21689148307848
0.002672633476288147,-0.43217041015625,1351.2246093750002,0.0006319444618151802,-63.986421742982785
0.0027037106097333578,-0.35917041015625006,1366.9365234375002,0.000384639667068052,-68.29891857591407
0.002734787743178569,-0.2981704101562501,1382.6484375000002,0.0004879739450311922,-66.23206730572234
0.00276586487662378,-0.20717041015625015,1398.3603515625002,0.00046591261824036723,-66.63391053058322
0.002796942010068991,-0.11717041015625007,1414.0722656250002,0.0010196939871304359,-59.830602823702826
0.002828019143514202,-0.029170410156249993,1429.7841796875002,0.0013088135894992903,-57.66244408017564
0.002859096276959413,0.08482958984374989,1445.4960937500002,0.0010781733138540152,-59.34622842612738
0.002890173410404624,0.16082958984374995,1461.2080078125002,0.00031889815209363616,-69.926959919535
0.002921250543849835,0.2608295898437498,1476.9199218750002,0.0015115578511046624,-56.41150452686504
0.0029523276772950463,0.3408295898437499,1492.6318359375002,0.006829001949245285,-43.31285526509113
0.0029834048107402573,0.4008295898437497,1508.3437500000002,0.006295519086075546,-44.01936910029387
0.003014481944185468,0.44882958984374977,1524.0556640625002,0.0017714506453767622,-55.03341885707403
0.003045559077630679,0.48982958984375014,1539.7675781250002,0.0009018131644108673,-60.8976685758971
0.00307663621107589,0.49082958984375,1555.4794921875002,0.0010270258525840784,-59.768372473184364
0.003107713344521101,0.5088295898437498,1571.1914062500002,0.0008364950548467179,-61.550732432342166
0.003138790477966312,0.47482958984375,1586.9033203125002,0.0004638811705372698,-66.67186509385478
0.0031698676114115232,0.4298295898437501,1602.6152343750002,0.0002152387326575055,-73.34159143520326
0.0032009447448567343,0.3748295898437499,1618.3271484375002,0.00043924812082368915,-67.14580173647585
0.0032320218783019453,0.29582958984374996,1634.0390625000002,0.0006555640918474911,-63.66769684044626
0.0032630990117471564,0.2198295898437499,1649.7509765625002,0.0008546963002470041,-61.36376350947971
0.003294176145192367,0.13682958984374993,1665.4628906250002,0.0005128496181186039,-65.8001992537588
0.003325253278637578,0.01982958984374994,1681.1748046875002,0.0006612000515132913,-63.593342412168134
0.003356330412082789,-0.05617041015625013,1696.8867187500002,0.0007569701214674968,-62.41842523439932
0.003387407545528,-0.1591704101562501,1712.5986328125002,0.0004701589755601969,-66.55510535325544
0.0034184846789732113,-0.2721704101562501,1728.3105468750002,0.0008586533719846445,-61.32364239464641
0.0034495618124184223,-0.33617041015625015,1744.0224609375002,0.0041606277485728435,-47.616822773967094
0.0034806389458636334,-0.40817041015625,1759.7343750000002,0.0036288121414242112,-48.80471027842638
0.0035117160793088444,-0.45517041015625015,1775.4462890625002,0.0012991734956303079,-57.72665695393937
0.0035427932127540555,-0.49217041015625007,1791.1582031250002,0.00035950323832220605,-68.8859438406194
0.003573870346199266,-0.5021704101562501,1806.8701171875002,0.0004759296281648123,-66.44914514410769
0.003604947479644477,-0.5021704101562501,1822.5820312500002,0.0008217491024556259,-61.70521522139738
0.0036360246130896882,-0.47817041015625006,1838.2939453125002,0.0005867087154499244,-64.63154919261954
0.0036671017465348993,-0.4171704101562501,1854.0058593750002,0.0001821859851562036,-74.7897006448564
0.0036981788799801104,-0.3821704101562502,1869.7177734375002,0.00010992869910852162,-79.17777814943116
0.0037292560134253214,-0.29917041015625,1885.4296875000002,0.0002989023951712473,-70.48941206791434
0.0037603331468705325,-0.22117041015625016,1901.1416015625002,0.00021328647988833713,-73.4207334265638
0.0037914102803157435,-0.12017041015625018,1916.8535156250002,0.00010741608223744768,-79.37861375106584
0.0038224874137609546,-0.029170410156249993,1932.5654296875002,0.00047428372373934015,-66.47923556208254
0.0038535645472061652,0.07482958984374988,1948.2773437500002,0.00028226812741411394,-70.98676312677453
0.0038846416806513763,0.16982958984374985,1963.9892578125002,8.198178937041452e-05,-81.72565203034368
0.003915718814096587,0.2608295898437498,1979.7011718750002,0.0009392433706206217,-60.544437222682994
0.003946795947541799,0.33582958984375,1995.4130859375002,0.00292575846485343,-50.67523059276357
0.0039778730809870095,0.32182958984375,2011.1250000000002,0.0027214095847547548,-51.30412179618355
0.00400895021443222,0.40782958984374984,2026.8369140625002,0.0010527376553936744,-59.55359684173584
0.004040027347877432,0.4618295898437501,2042.5488281250002,0.0004520054722268139,-66.89712612776296
0.004071104481322642,0.49482958984375003,2058.2607421875005,0.00045755744251117395,-66.79108750369438
0.004102181614767854,0.5078295898437499,2073.9726562500005,0.00012512170951329166,-78.05334654185367
0.004133258748213064,0.4968295898437498,2089.6845703125005,0.0005293983365874458,-65.52434853601386
0.004164335881658276,0.4648295898437498,2105.3964843750005,0.000233842892258303,-72.62151648479974
0.0041954130151034864,0.4298295898437501,2121.1083984375005,0.0004992194151244242,-66.03417063992146
0.004226490148548698,0.3668295898437499,2136.8203125000005,0.00039944614320885176,-67.9708353332369
0.0042575672819939086,0.29582958984374996,2152.5322265625005,0.00010484964901930447,-79.58866029680794
0.004288644415439119,0.22682958984375,2168.2441406250005,0.0003017151010145568,-70.40805902305375
0.004319721548884331,0.12382958984374981,2183.9560546875005,0.0004616470391261049,-66.7137988919197
0.004350798682329541,0.015829589843749936,2199.6679687500005,0.0003117319800124516,-70.12437281139267
0.004381875815774753,-0.08417041015625015,2215.3798828125005,0.00028597913319889983,-70.8733130599968
0.004412952949219963,-0.17717041015625012,2231.0917968750005,0.0004032944830446287,-67.88755435803074
0.004444030082665175,-0.26317041015625,2246.8037109375005,0.0022520811994990106,-52.94831909441659
0.0044751072161103855,-0.33917041015625005,2262.5156250000005,0.0023319561757368765,-52.64559230622088
0.004506184349555597,-0.40817041015625,2278.2275390625005,0.0011917614783195213,-58.47621312313712
0.004537261483000808,-0.45817041015625004,2293.9394531250005,0.0007109685820288118,-62.96299179746326
0.004568338616446018,-0.4851704101562502,2309.6513671875005,0.0006516950537280401,-63.71911149116588
0.00459941574989123,-0.5081704101562501,2325.3632812500005,0.000407343203117219,-67.80079049630999
0.00463049288333644,-0.5041704101562501,2341.0751953125005,0.0002626187145206451,-71.61348654301817
0.004661570016781652,-0.47617041015625006,2356.7871093750005,0.00031246690641108867,-70.10391941854382
0.0046926471502268625,-0.4291704101562501,2372.4990234375005,0.000562994168216096,-64.98992206000283
0.004723724283672074,-0.3821704101562502,2388.2109375000005,0.0003057134313544701,-70.29370957881379
0.004754801417117285,-0.29917041015625,2403.9228515625005,9.505712378989402e-05,-80.4403065205323
0.004785878550562496,-0.21717041015625016,2419.6347656250005,0.00013687097049884807,-77.27377300293787
0.004816955684007707,-0.12717041015625008,2435.3466796875005,0.0003255467655393733,-69.74773227764143
0.004848032817452917,-0.029170410156249993,2451.0585937500005,0.00025432754770666474,-71.89213189178412
0.004879109950898129,0.11482958984374991,2466.7705078125005,0.0004952730370042664,-66.10310627558955
0.0049101870843433395,0.17682958984374997,2482.4824218750005,0.0003220858728938498,-69.84056644272337
0.004941264217788551,0.2568295898437498,2498.1943359375005,0.0024396160971410447,-52.25357019106491
0.004972341351233762,0.3408295898437499,2513.9062500000005,0.0025784419841156227,-51.77285271526052
0.005003418484678973,0.41382958984375007,2529.6181640625005,0.0010991516378521637,-59.178847764382056
0.005034495618124184,0.4518295898437499,2545.3300781250005,0.00014130312126265537,-76.99696483571657
0.005065572751569395,0.4888295898437498,2561.0419921875005,0.0002467689937275812,-72.1541881621938
0.005096649885014606,0.49882958984375003,2576.7539062500005,0.0006387350876109435,-63.8935845084816
0.0051277270184598165,0.4978295898437497,2592.4658203125005,0.0005073904286010611,-65.89315457400224
0.005158804151905028,0.4688295898437498,2608.1777343750005,0.0004111504371683354,-67.71998485142663
0.005189881285350239,0.4298295898437501,2623.8896484375005,0.0004477233255280283,-66.97980556292316
0.00522095841879545,0.3668295898437499,2639.6015625000005,0.0002953659601696905,-70.59279110992972
0.005252035552240661,0.30382958984374997,2655.3134765625005,8.402373488547763e-05,-81.5119602530617
0.005283112685685872,0.2218295898437499,2671.0253906250005,9.463148984036237e-05,-80.47928635813889
0.005314189819131083,0.1278295898437498,2686.7373046875005,0.00023758955746403735,-72.48345299108075
0.005345266952576294,0.01982958984374994,2702.4492187500005,9.906266745855325e-05,-80.08179955145727
0.005376344086021505,-0.07117041015625003,2718.1611328125005,5.383997266538946e-05,-85.37790322418785
0.0054074212194667156,-0.17317041015625012,2733.8730468750005,0.0004199035570591538,-67.53700890691208
0.005438498352911927,-0.2601704101562501,2749.5849609375005,0.0019078915134951465,-54.388926470999095
0.005469575486357138,-0.33917041015625005,2765.2968750000005,0.001754123826204687,-55.11879504296252
0.005500652619802349,-0.4111704101562501,2781.0087890625005,0.00070732682927738,-63.00759735947604
0.00553172975324756,-0.44717041015625014,2796.7207031250005,9.338224914907909e-05,-80.59471330942046
0.005562806886692771,-0.48617041015625007,2812.4326171875005,8.411277216170758e-05,-81.50276096574831
0.005593884020137982,-0.5081704101562501,2828.1445312500005,0.000508737365426254,-65.87012725103924
0.005624961153583193,-0.5031704101562502,2843.8564453125005,0.0005166259471338635,-65.73647569347682
0.005656038287028404,-0.48217041015625006,2859.5683593750005,0.00034198702128562455,-69.3198074845311
0.005687115420473615,-0.43417041015625,2875.2802734375005,0.00011784603807525819,-78.57370019943586
0.005718192553918826,-0.3821704101562502,2890.9921875000005,0.00043416295582120217,-67.24694467403137
0.005749269687364037,-0.3021704101562501,2906.7041015625005,0.0005163478215320065,-65.7411530016723
0.005780346820809248,-0.21717041015625016,2922.4160156250005,0.0005514695856633476,-65.16956867475669
0.005811423954254459,-0.1321704101562502,2938.1279296875005,0.0005892344247086217,-64.59423775327068
0.00584250108769967,-0.023170410156249988,2953.8398437500005,0.00039591412438782456,-68.04798006505436
0.005873578221144881,0.07582958984374999,2969.5517578125005,0.00017331700624615107,-75.22317637517926
0.0059046553545900925,0.17482958984374997,2985.2636718750005,0.0004144259033702634,-67.65106212252232
0.005935732488035303,0.2528295898437498,3000.9755859375005,0.0015880590777746693,-55.98266690079085
0.005966809621480515,0.3348295898437499,3016.6875000000005,0.0016924861357162774,-55.42949759935303
0.005997886754925725,0.4008295898437497,3032.3994140625005,0.000981757996508686,-60.159911044649846
0.006028963888370936,0.43482958984375,3048.1113281250005,0.00029118186085172666,-70.7167136272244
0.006060041021816147,0.48582958984375013,3063.8232421875005,0.0001114202794594616,-79.0607150539804
